# LABOCA passing band
# transmission scaled to its maximum
# from individual measurements 
# of single filters
# G. Siringo, ESO (MPIfR - 2007 06 26)
#
# column definition:
# 1: frequency [GHz]
# 2: transmission relative to maximum [range 0 - 1]
#
#
283.58299   5.18426E-5
285.213     8.77011E-5
286.84301   1.47507E-4
288.47201   2.46519E-4
290.10199   4.09162E-4
291.732     6.72952E-4
293.36201   0.0011
294.99199   0.00178
296.62102   0.0029
298.25099   0.00474
299.88101   0.00782
301.51098   0.01301
303.141     0.02176
304.76999   0.03635
306.400     0.06036
308.03001   0.09945
309.65999   0.16241
311.28899   0.34486
312.919     0.52002
314.54901   0.69566
316.17899   0.77089
317.809     0.7875
319.438     0.79303
321.06801   0.8015
322.69799   0.82152
324.328     0.85549
325.95801   0.89759
327.587     0.93791
329.21702   0.97032
330.84699   0.99179
332.47701   1.00
334.10698   0.99629
335.73601   0.98622
337.36599   0.97395
338.996     0.96289
340.62601   0.95508
342.25501   0.95109
343.88499   0.95084
345.515     0.95211
347.14501   0.9483
348.77499   0.93165
350.40399   0.90143
352.034     0.86284
353.66401   0.82179
355.29399   0.78516
356.924     0.76026
358.55299   0.74807
360.18301   0.74301
361.81298   0.73771
363.443     0.72429
365.07199   0.69949
366.702     0.66489
368.33201   0.62359
369.96199   0.5795
371.592     0.53629
373.221     0.4926
374.85101   0.44447
376.48099   0.39104
378.111     0.33447
379.74101   0.27838
381.37001   0.22665
382.99999   0.18083
384.63      0.14053
386.26001   0.10592
387.88999   0.07697
389.51902   0.05398
391.14899   0.03813
392.77901   0.02886
394.40898   0.02328
396.03801   0.01916
397.66799   0.01597
399.298     0.01352
400.92801   0.01166
402.55799   0.01066
404.18699   0.01128
405.817     0.01284
407.44701   0.01354
409.07699   0.01318
410.707     0.01228
412.336     0.0105
413.96601   0.00804
415.59599   0.00652
417.226     0.00636
418.85499   0.00631
420.48501   0.00578
422.11498   0.00525
423.745     0.00471
425.37501   0.00371
427.004     0.00277
428.63401   0.00239
430.26399   0.00219
431.894     0.00185
433.52402   0.00153
435.15301   0.00138
436.78299   0.00129
438.413     0.00119
440.04301   0.00117
441.67299   0.00122
443.30199   0.00121
444.932     0.00108
446.56201   9.81012E-4
448.19199   9.4155E-4
449.82102   8.66244E-4
451.45099   7.75472E-4
453.08101   7.69931E-4
454.71098   7.89013E-4
456.341     7.20944E-4
457.96999   6.17412E-4
459.600     5.69763E-4
461.23001   5.11168E-4
462.85999   3.66159E-4
464.49      2.28248E-4
466.119     1.63721E-4
467.74901   4.64196E-5
